@ xaxis legend "T (K)"
       109    0.859566
       114     0.84693
       119    0.816354
       124    0.789175
       129    0.745369
       134     0.69859
       139    0.673792
       144     0.65707
       149    0.605138
       154    0.556763
       159    0.499215
       164    0.449792
       169    0.407941
       174    0.358626
       179    0.309747
       184    0.244139
       189    0.206007
       194    0.169548
       199    0.139383
       204    0.109741
       209   0.0790064
